# RLC circuit analytic TF with f_res = 1.0 GHz, Q = 1000
#        Freq [GHz]     vRe []     vIm []
             0.9    2.2026498e-05    -0.0046931879
          0.9005    2.2259277e-05    -0.0047179213
           0.901     2.249562e-05    -0.0047429014
          0.9015    2.2735598e-05    -0.0047681318
           0.902    2.2979286e-05    -0.0047936164
          0.9025    2.3226761e-05     -0.004819359
           0.903      2.34781e-05    -0.0048453636
          0.9035    2.3733384e-05    -0.0048716343
           0.904    2.3992694e-05     -0.004898175
          0.9045    2.4256116e-05    -0.0049249901
           0.905    2.4523736e-05    -0.0049520839
          0.9055    2.4795642e-05    -0.0049794606
           0.906    2.5071927e-05    -0.0050071248
          0.9065    2.5352683e-05     -0.005035081
           0.907    2.5638008e-05    -0.0050633339
          0.9075    2.5927999e-05    -0.0050918883
           0.908    2.6222758e-05     -0.005120749
          0.9085    2.6522389e-05     -0.005149921
           0.909       2.6827e-05    -0.0051794093
          0.9095    2.7136701e-05    -0.0052092192
            0.91    2.7451605e-05     -0.005239356
          0.9105    2.7771827e-05     -0.005269825
           0.911    2.8097487e-05    -0.0053006318
          0.9115    2.8428709e-05    -0.0053317822
           0.912    2.8765619e-05    -0.0053632818
          0.9125    2.9108346e-05    -0.0053951365
           0.913    2.9457024e-05    -0.0054273526
          0.9135     2.981179e-05     -0.005459936
           0.914    3.0172787e-05    -0.0054928933
          0.9145    3.0540159e-05    -0.0055262308
           0.915    3.0914057e-05    -0.0055599552
          0.9155    3.1294635e-05    -0.0055940732
           0.916    3.1682051e-05    -0.0056285919
          0.9165     3.207647e-05    -0.0056635184
           0.917    3.2478059e-05    -0.0056988599
          0.9175    3.2886992e-05    -0.0057346239
           0.918    3.3303449e-05    -0.0057708179
          0.9185    3.3727613e-05      -0.00580745
           0.919    3.4159674e-05     -0.005844528
          0.9195    3.4599829e-05    -0.0058820602
            0.92    3.5048279e-05    -0.0059200549
          0.9205    3.5505232e-05    -0.0059585209
           0.921    3.5970903e-05    -0.0059974669
          0.9215    3.6445514e-05     -0.006036902
           0.922    3.6929293e-05    -0.0060768354
          0.9225    3.7422476e-05    -0.0061172768
           0.923    3.7925308e-05    -0.0061582359
          0.9235    3.8438039e-05    -0.0061997227
           0.924     3.896093e-05    -0.0062417475
          0.9245    3.9494248e-05    -0.0062843208
           0.925    4.0038271e-05    -0.0063274535
          0.9255    4.0593286e-05    -0.0063711567
           0.926    4.1159587e-05    -0.0064154418
          0.9265    4.1737483e-05    -0.0064603205
           0.927    4.2327288e-05    -0.0065058048
          0.9275    4.2929331e-05    -0.0065519072
           0.928     4.354395e-05    -0.0065986403
          0.9285    4.4171495e-05    -0.0066460171
           0.929    4.4812329e-05    -0.0066940512
          0.9295    4.5466828e-05    -0.0067427562
            0.93     4.613538e-05    -0.0067921463
          0.9305    4.6818389e-05    -0.0068422362
           0.931     4.751627e-05    -0.0068930409
          0.9315    4.8229457e-05    -0.0069445757
           0.932    4.8958398e-05    -0.0069968565
          0.9325    4.9703556e-05    -0.0070498997
           0.933    5.0465414e-05    -0.0071037221
          0.9335    5.1244472e-05     -0.007158341
           0.934    5.2041248e-05    -0.0072137743
          0.9345     5.285628e-05    -0.0072700403
           0.935    5.3690126e-05     -0.007327158
          0.9355    5.4543368e-05    -0.0073851468
           0.936    5.5416607e-05    -0.0074440269
          0.9365     5.631047e-05     -0.007503819
           0.937    5.7225608e-05    -0.0075645445
          0.9375    5.8162696e-05    -0.0076262254
           0.938     5.912244e-05    -0.0076888845
          0.9385    6.0105571e-05    -0.0077525453
           0.939     6.111285e-05    -0.0078172319
          0.9395    6.2145071e-05    -0.0078829696
            0.94     6.320306e-05     -0.007949784
          0.9405    6.4287676e-05    -0.0080177019
           0.941    6.5399816e-05    -0.0080867508
          0.9415    6.6540414e-05    -0.0081569594
           0.942    6.7710444e-05     -0.008228357
          0.9425    6.8910922e-05    -0.0083009742
           0.943    7.0142909e-05    -0.0083748426
          0.9435     7.140751e-05    -0.0084499947
           0.944    7.2705881e-05    -0.0085264644
          0.9445     7.403923e-05    -0.0086042866
           0.945    7.5408817e-05    -0.0086834976
          0.9455    7.6815962e-05    -0.0087641349
           0.946    7.8262042e-05    -0.0088462375
          0.9465    7.9748502e-05    -0.0089298456
           0.947     8.127685e-05    -0.0090150011
          0.9475    8.2848669e-05    -0.0091017474
           0.948    8.4465613e-05    -0.0091901294
          0.9485     8.612942e-05    -0.0092801941
           0.949    8.7841909e-05    -0.0093719898
          0.9495    8.9604989e-05    -0.0094655671
            0.95    9.1420663e-05    -0.0095609783
          0.9505    9.3291034e-05    -0.0096582778
           0.951    9.5218312e-05    -0.0097575225
          0.9515    9.7204818e-05    -0.0098587712
           0.952    9.9252994e-05    -0.0099620853
          0.9525    0.00010136541     -0.010067529
           0.953    0.00010354476     -0.010175168
          0.9535     0.0001057939     -0.010285072
           0.954    0.00010811582     -0.010397314
          0.9545    0.00011051369     -0.010511968
           0.955    0.00011299084     -0.010629115
          0.9555     0.0001155508     -0.010748835
           0.956    0.00011819726     -0.010871214
          0.9565    0.00012093417     -0.010996342
           0.957    0.00012376568     -0.011124314
          0.9575    0.00012669617     -0.011255226
           0.958     0.0001297303     -0.011389182
          0.9585      0.000132873     -0.011526289
           0.959    0.00013612948      -0.01166666
          0.9595    0.00013950528     -0.011810411
            0.96    0.00014300628     -0.011957668
          0.9605    0.00014663874      -0.01210856
           0.961    0.00015040928     -0.012263224
          0.9615    0.00015432498     -0.012421802
           0.962    0.00015839334     -0.012584445
          0.9625    0.00016262239     -0.012751311
           0.963    0.00016702066     -0.012922568
          0.9635    0.00017159728     -0.013098391
           0.964    0.00017636199     -0.013278964
          0.9645     0.0001813252     -0.013464484
           0.965    0.00018649806     -0.013655156
          0.9655    0.00019189249     -0.013851197
           0.966    0.00019752131     -0.014052839
          0.9665    0.00020339823     -0.014260325
           0.967    0.00020953802     -0.014473911
          0.9675    0.00021595653     -0.014693873
           0.968    0.00022267084     -0.014920498
          0.9685    0.00022969936     -0.015154095
           0.969    0.00023706194     -0.015394991
          0.9695    0.00024478002     -0.015643532
            0.97     0.0002528768      -0.01590009
          0.9705    0.00026137739     -0.016165057
           0.971    0.00027030902     -0.016438855
          0.9715    0.00027970125     -0.016721932
           0.972    0.00028958621     -0.017014768
          0.9725    0.00029999888     -0.017317877
           0.973     0.0003109774     -0.017631809
          0.9735    0.00032256342     -0.017957154
           0.974    0.00033480248     -0.018294545
          0.9745    0.00034774445     -0.018644665
           0.975    0.00036144409     -0.019008247
          0.9755    0.00037596155     -0.019386083
           0.976    0.00039136308     -0.019779027
          0.9765    0.00040772178     -0.020188005
           0.977    0.00042511842     -0.020614017
          0.9775    0.00044364252      -0.02105815
           0.978    0.00046339339     -0.021521586
          0.9785    0.00048448156     -0.022005609
           0.979    0.00050703026     -0.022511623
          0.9795    0.00053117723     -0.023041161
            0.98    0.00055707683       -0.0235959
          0.9805    0.00058490248     -0.024177683
           0.981     0.0006148496     -0.024788537
          0.9815    0.00064713898     -0.025430694
           0.982    0.00068202089     -0.026106622
          0.9825     0.0007197799     -0.026819057
           0.983     0.0007607407     -0.027571035
          0.9835    0.00080527503      -0.02836594
           0.984    0.00085381016     -0.029207553
          0.9845    0.00090683911     -0.030100112
           0.985    0.00096493317     -0.031048383
          0.9855     0.0010287573     -0.032057744
           0.986     0.0010990891     -0.033134289
          0.9865     0.0011768427     -0.034284949
           0.987     0.0012630983     -0.035517641
          0.9875     0.0013591396     -0.036841449
           0.988     0.0014665023     -0.038266848
          0.9885     0.0015870346     -0.039805979
           0.989     0.0017229781     -0.041472996
          0.9895     0.0018770712     -0.043284498
            0.99     0.0020526883     -0.045260079
          0.9905     0.0022540249     -0.047423035
           0.991     0.0024863496     -0.049801282
          0.9915     0.0027563504     -0.052428551
           0.992     0.0030726189     -0.055345984
          0.9925     0.0034463391     -0.058604282
           0.993     0.0038922838     -0.062266635
          0.9935     0.0044302879     -0.066412804
           0.994     0.0050874786     -0.071144896
          0.9945     0.0059017366     -0.076595732
           0.995     0.0069272342      -0.08294123
          0.9955     0.0082435981     -0.090419252
           0.996     0.0099716742     -0.099359146
          0.9965      0.012301922      -0.11022969
           0.997       0.01554839      -0.12371999
          0.9975      0.020258213      -0.14088228
           0.998      0.027452071      -0.16339662
          0.9985      0.039207091      -0.19408734
           0.999      0.060258898      -0.23796589
          0.9995       0.10317247      -0.30418401
               1       0.20855411       -0.4062749
          1.0005       0.52651477      -0.49929647
           1.001       0.99741124      0.050813958
          1.0015         0.475768       0.49941246
           1.002       0.19252603       0.39428386
          1.0025      0.097311009        0.2963808
           1.003      0.057651597       0.23308344
          1.0035      0.037880411       0.19090701
           1.004      0.026714212        0.1612469
          1.0045      0.019823259        0.1393926
           1.005      0.015282685       0.12267487
          1.0055      0.012136875        0.1094969
           1.006     0.0098694403      0.098853601
          1.0065      0.008182059      0.090083922
           1.007     0.0068928494      0.082736558
          1.0075     0.0058858935      0.076493462
           1.008     0.0050845227       0.07112433
          1.0085     0.0044364066      0.066458445
           1.009     0.0039048477      0.062366657
          1.0095     0.0034635003      0.058749506
            1.01     0.0030930569      0.055529181
          1.0105      0.002779109      0.052643951
           1.011     0.0025107283      0.050044226
          1.0115     0.0022795053      0.047689718
           1.012     0.0020788841      0.045547364
          1.0125     0.0019036928      0.043589778
           1.013     0.0017498074      0.041794085
          1.0135      0.001613907       0.04014103
           1.014     0.0014932934      0.038614291
          1.0145     0.0013857559      0.037199941
           1.015     0.0012894695      0.035886025
          1.0155     0.0012029169      0.034662225
           1.016     0.0011248279      0.033519587
          1.0165     0.0010541334      0.032450303
           1.017    0.00098992748      0.031447536
          1.0175    0.00093143919      0.030505272
           1.018    0.00087800863      0.029618199
          1.0185    0.00082906847      0.028781611
           1.019    0.00078412879      0.027991319
          1.0195     0.0007427647      0.027243586
            1.02     0.0007046063      0.026535068
          1.0205     0.0006693303      0.025862759
           1.021     0.0006366532      0.025223954
          1.0215    0.00060632552      0.024616212
           1.022    0.00057812702      0.024037321
          1.0225    0.00055186269      0.023485275
           1.023    0.00052735936       0.02295825
          1.0235    0.00050446281      0.022454584
           1.024    0.00048303536      0.021972757
          1.0245    0.00046295378       0.02151138
           1.025    0.00044410749      0.021069178
          1.0255    0.00042639704      0.020644981
           1.026    0.00040973281       0.02023771
          1.0265    0.00039403384      0.019846374
           1.027    0.00037922688      0.019470056
          1.0275    0.00036524547      0.019107906
           1.028    0.00035202925       0.01875914
          1.0285    0.00033952329      0.018423029
           1.029    0.00032767749      0.018098898
          1.0295    0.00031644608      0.017786117
            1.03    0.00030578724      0.017484099
          1.0305    0.00029566259        0.0171923
           1.031    0.00028603697      0.016910209
          1.0315    0.00027687803      0.016637349
           1.032    0.00026815603      0.016373275
          1.0325    0.00025984353      0.016117568
           1.033    0.00025191525      0.015869839
          1.0335    0.00024434781      0.015629719
           1.034    0.00023711958      0.015396862
          1.0345    0.00023021055      0.015170944
           1.035    0.00022360214       0.01495166
          1.0355    0.00021727712      0.014738722
           1.036    0.00021121948      0.014531857
          1.0365    0.00020541432       0.01433081
           1.037    0.00019984775      0.014135339
          1.0375    0.00019450685      0.013945215
           1.038    0.00018937955      0.013760221
          1.0385    0.00018445457      0.013580153
           1.039    0.00017972139      0.013404816
          1.0395    0.00017517014      0.013234026
            1.04    0.00017079158      0.013067609
          1.0405    0.00016657707      0.012905399
           1.041    0.00016251849      0.012747238
          1.0415    0.00015860822      0.012592977
           1.042    0.00015483909      0.012442472
          1.0425    0.00015120437      0.012295589
           1.043    0.00014769773      0.012152198
          1.0435     0.0001443132      0.012012176
           1.044    0.00014104515      0.011875406
          1.0445    0.00013788829      0.011741775
           1.045    0.00013483761      0.011611177
          1.0455    0.00013188839       0.01148351
           1.046    0.00012903616      0.011358676
          1.0465     0.0001262767      0.011236581
           1.047    0.00012360602      0.011117137
          1.0475    0.00012102033      0.011000259
           1.048    0.00011851606      0.010885863
          1.0485    0.00011608981      0.010773873
           1.049    0.00011373835      0.010664212
          1.0495    0.00011145864      0.010556809
            1.05    0.00010924778      0.010451595
          1.0505    0.00010710301      0.010348504
           1.051    0.00010502171      0.010247472
          1.0515    0.00010300139      0.010148438
           1.052    0.00010103969      0.010051342
          1.0525    9.9134348e-05     0.0099561298
           1.053    9.7283219e-05     0.0098627458
          1.0535    9.5484256e-05     0.0097711381
           1.054    9.3735511e-05     0.0096812564
          1.0545    9.2035124e-05     0.0095930524
           1.055    9.0381322e-05     0.0095064795
          1.0555     8.877241e-05     0.0094214929
           1.056    8.7206772e-05     0.0093380494
          1.0565    8.5682863e-05     0.0092561073
           1.057    8.4199207e-05     0.0091756263
          1.0575    8.2754394e-05     0.0090965678
           1.058    8.1347072e-05     0.0090188943
          1.0585     7.997595e-05     0.0089425697
           1.059    7.8639791e-05     0.0088675592
          1.0595    7.7337412e-05     0.0087938292
            1.06    7.6067679e-05     0.0087213469
          1.0605    7.4829504e-05     0.0086500812
           1.061    7.3621845e-05     0.0085800014
          1.0615    7.2443703e-05     0.0085110784
           1.062     7.129412e-05     0.0084432836
          1.0625    7.0172175e-05     0.0083765895
           1.063    6.9076986e-05     0.0083109695
          1.0635    6.8007704e-05      0.008246398
           1.064    6.6963515e-05     0.0081828498
          1.0645    6.5943636e-05     0.0081203009
           1.065    6.4947314e-05     0.0080587279
          1.0655    6.3973825e-05     0.0079981081
           1.066    6.3022475e-05     0.0079384194
          1.0665    6.2092593e-05     0.0078796407
           1.067    6.1183535e-05     0.0078217512
          1.0675     6.029468e-05     0.0077647308
           1.068    5.9425432e-05     0.0077085602
          1.0685    5.8575215e-05     0.0076532205
           1.069    5.7743474e-05     0.0075986933
          1.0695    5.6929675e-05     0.0075449609
            1.07    5.6133304e-05     0.0074920059
          1.0705    5.5353863e-05     0.0074398117
           1.071    5.4590873e-05      0.007388362
          1.0715    5.3843872e-05     0.0073376408
           1.072    5.3112414e-05     0.0072876329
          1.0725    5.2396068e-05     0.0072383232
           1.073    5.1694419e-05     0.0071896972
          1.0735    5.1007065e-05     0.0071417409
           1.074    5.0333618e-05     0.0070944404
          1.0745    4.9673704e-05     0.0070477823
           1.075    4.9026959e-05     0.0070017538
          1.0755    4.8393035e-05      0.006956342
           1.076    4.7771593e-05     0.0069115346
          1.0765    4.7162304e-05     0.0068673197
           1.077    4.6564853e-05     0.0068236856
          1.0775    4.5978933e-05     0.0067806208
           1.078    4.5404247e-05     0.0067381144
          1.0785    4.4840508e-05     0.0066961554
           1.079    4.4287439e-05     0.0066547334
          1.0795    4.3744769e-05     0.0066138382
            1.08    4.3212239e-05     0.0065734597
          1.0805    4.2689596e-05     0.0065335881
           1.081    4.2176595e-05     0.0064942141
          1.0815    4.1672999e-05     0.0064553282
           1.082    4.1178578e-05     0.0064169215
          1.0825    4.0693108e-05     0.0063789852
           1.083    4.0216375e-05     0.0063415107
          1.0835    3.9748168e-05     0.0063044895
           1.084    3.9288284e-05     0.0062679135
          1.0845    3.8836525e-05     0.0062317747
           1.085      3.83927e-05     0.0061960653
          1.0855    3.7956622e-05     0.0061607777
           1.086    3.7528113e-05     0.0061259044
          1.0865    3.7106996e-05     0.0060914381
           1.087      3.66931e-05     0.0060573719
          1.0875    3.6286262e-05     0.0060236986
           1.088     3.588632e-05     0.0059904117
          1.0885    3.5493118e-05     0.0059575043
           1.089    3.5106504e-05     0.0059249702
          1.0895    3.4726332e-05     0.0058928029
            1.09    3.4352457e-05     0.0058609963
          1.0905    3.3984741e-05     0.0058295443
           1.091    3.3623049e-05      0.005798441
          1.0915    3.3267247e-05     0.0057676807
           1.092    3.2917209e-05     0.0057372577
          1.0925     3.257281e-05     0.0057071664
           1.093    3.2233927e-05     0.0056774015
          1.0935    3.1900444e-05     0.0056479577
           1.094    3.1572245e-05     0.0056188298
          1.0945    3.1249219e-05     0.0055900128
